# f[Hz]  Omega_total  Omega_last_bounce  Omega_comb_tail
# NVG derived template: f* = 2.80e-05 Hz, Omega* = 1.20e-09,
# comb spacing 2^(-1/3) = 0.7937, dilution 2^(4/3) = 2.5198
1.000000e-07  1.784488e-15  3.875483e-16  1.396940e-15
1.023293e-07  1.912065e-15  4.152648e-16  1.496800e-15
1.047129e-07  2.048761e-15  4.449635e-16  1.603797e-15
1.071519e-07  2.195226e-15  4.767861e-16  1.718440e-15
1.096478e-07  2.352159e-15  5.108846e-16  1.841275e-15
1.122018e-07  2.520308e-15  5.474217e-16  1.972886e-15
1.148154e-07  2.700473e-15  5.865718e-16  2.113902e-15
1.174898e-07  2.893514e-15  6.285217e-16  2.264992e-15
1.202264e-07  3.100348e-15  6.734716e-16  2.426877e-15
1.230269e-07  3.321963e-15  7.216362e-16  2.600326e-15
1.258925e-07  3.559412e-15  7.732453e-16  2.786167e-15
1.288250e-07  3.813827e-15  8.285452e-16  2.985282e-15
1.318257e-07  4.086419e-15  8.877998e-16  3.198620e-15
1.348963e-07  4.378487e-15  9.512920e-16  3.427194e-15
1.380384e-07  4.691419e-15  1.019325e-15  3.672094e-15
1.412538e-07  5.026706e-15  1.092223e-15  3.934483e-15
1.445440e-07  5.385944e-15  1.170334e-15  4.215609e-15
1.479108e-07  5.770841e-15  1.254032e-15  4.516809e-15
1.513561e-07  6.183229e-15  1.343715e-15  4.839515e-15
1.548817e-07  6.625070e-15  1.439811e-15  5.185259e-15
1.584893e-07  7.098465e-15  1.542779e-15  5.555686e-15
1.621810e-07  7.605665e-15  1.653111e-15  5.952554e-15
1.659587e-07  8.149082e-15  1.771333e-15  6.377749e-15
1.698244e-07  8.731299e-15  1.898010e-15  6.833289e-15
1.737801e-07  9.355082e-15  2.033745e-15  7.321338e-15
1.778279e-07  1.002340e-14  2.179186e-15  7.844211e-15
1.819701e-07  1.073942e-14  2.335028e-15  8.404389e-15
1.862087e-07  1.150654e-14  2.502015e-15  9.004530e-15
1.905461e-07  1.232842e-14  2.680943e-15  9.647479e-15
1.949845e-07  1.320895e-14  2.872665e-15  1.033628e-14
1.995262e-07  1.415231e-14  3.078098e-15  1.107421e-14
2.041738e-07  1.516297e-14  3.298221e-15  1.186475e-14
2.089296e-07  1.624574e-14  3.534084e-15  1.271165e-14
2.137962e-07  1.740574e-14  3.786813e-15  1.361893e-14
2.187762e-07  1.864848e-14  4.057614e-15  1.459086e-14
2.238721e-07  1.997984e-14  4.347779e-15  1.563206e-14
2.290868e-07  2.140613e-14  4.658692e-15  1.674744e-14
2.344229e-07  2.293411e-14  4.991837e-15  1.794227e-14
2.398833e-07  2.457101e-14  5.348804e-15  1.922221e-14
2.454709e-07  2.632458e-14  5.731294e-15  2.059329e-14
2.511886e-07  2.820312e-14  6.141134e-15  2.206198e-14
2.570396e-07  3.021550e-14  6.580278e-15  2.363522e-14
2.630268e-07  3.237124e-14  7.050822e-15  2.532042e-14
2.691535e-07  3.468052e-14  7.555009e-15  2.712552e-14
2.754229e-07  3.715426e-14  8.095245e-15  2.905902e-14
2.818383e-07  3.980413e-14  8.674108e-15  3.113002e-14
2.884032e-07  4.264262e-14  9.294358e-15  3.334827e-14
2.951209e-07  4.568313e-14  9.958953e-15  3.572418e-14
3.019952e-07  4.893999e-14  1.067106e-14  3.826892e-14
3.090295e-07  5.242853e-14  1.143409e-14  4.099444e-14
3.162278e-07  5.616517e-14  1.225166e-14  4.391351e-14
3.235937e-07  6.016750e-14  1.312768e-14  4.703982e-14
3.311311e-07  6.445434e-14  1.406633e-14  5.038801e-14
3.388442e-07  6.904582e-14  1.507209e-14  5.397373e-14
3.467369e-07  7.396350e-14  1.614974e-14  5.781376e-14
3.548134e-07  7.923045e-14  1.730443e-14  6.192602e-14
3.630781e-07  8.487137e-14  1.854166e-14  6.632971e-14
3.715352e-07  9.091268e-14  1.986733e-14  7.104534e-14
3.801894e-07  9.738266e-14  2.128777e-14  7.609489e-14
3.890451e-07  1.043116e-13  2.280974e-14  8.150182e-14
3.981072e-07  1.117318e-13  2.444049e-14  8.729127e-14
4.073803e-07  1.196779e-13  2.618780e-14  9.349011e-14
4.168694e-07  1.281871e-13  2.806000e-14  1.001271e-13
4.265795e-07  1.372989e-13  3.006601e-14  1.072328e-13
4.365158e-07  1.470557e-13  3.221538e-14  1.148403e-13
4.466836e-07  1.575030e-13  3.451837e-14  1.229846e-13
4.570882e-07  1.686892e-13  3.698593e-14  1.317033e-13
4.677351e-07  1.806663e-13  3.962983e-14  1.410365e-13
4.786301e-07  1.934897e-13  4.246266e-14  1.510271e-13
4.897788e-07  2.072188e-13  4.549792e-14  1.617209e-13
5.011872e-07  2.219171e-13  4.875006e-14  1.731670e-13
5.128614e-07  2.376524e-13  5.223456e-14  1.854178e-13
5.248075e-07  2.544972e-13  5.596801e-14  1.985292e-13
5.370318e-07  2.725291e-13  5.996820e-14  2.125609e-13
5.495409e-07  2.918310e-13  6.425416e-14  2.275769e-13
5.623413e-07  3.124915e-13  6.884629e-14  2.436452e-13
5.754399e-07  3.346053e-13  7.376645e-14  2.608389e-13
5.888437e-07  3.582736e-13  7.903805e-14  2.792355e-13
6.025596e-07  3.836044e-13  8.468616e-14  2.989183e-13
6.165950e-07  4.107135e-13  9.073766e-14  3.199758e-13
6.309573e-07  4.397240e-13  9.722133e-14  3.425027e-13
6.456542e-07  4.707680e-13  1.041680e-13  3.666000e-13
6.606934e-07  5.039863e-13  1.116107e-13  3.923756e-13
6.760830e-07  5.395292e-13  1.195848e-13  4.199445e-13
6.918310e-07  5.775575e-13  1.281281e-13  4.494294e-13
7.079458e-07  6.182426e-13  1.372814e-13  4.809612e-13
7.244360e-07  6.617677e-13  1.470880e-13  5.146797e-13
7.413102e-07  7.083284e-13  1.575946e-13  5.507337e-13
7.585776e-07  7.581333e-13  1.688511e-13  5.892822e-13
7.762471e-07  8.114051e-13  1.809108e-13  6.304944e-13
7.943282e-07  8.683818e-13  1.938309e-13  6.745508e-13
8.128305e-07  9.293168e-13  2.076729e-13  7.216439e-13
8.317638e-07  9.944811e-13  2.225024e-13  7.719787e-13
8.511380e-07  1.064163e-12  2.383896e-13  8.257737e-13
8.709636e-07  1.138671e-12  2.554099e-13  8.832616e-13
8.912509e-07  1.218334e-12  2.736439e-13  9.446904e-13
9.120108e-07  1.303502e-12  2.931780e-13  1.010324e-12
9.332543e-07  1.394549e-12  3.141047e-13  1.080444e-12
9.549926e-07  1.491873e-12  3.365230e-13  1.155350e-12
9.772372e-07  1.595898e-12  3.605390e-13  1.235359e-12
1.000000e-06  1.707079e-12  3.862664e-13  1.320812e-12
1.023293e-06  1.825896e-12  4.138266e-13  1.412070e-12
1.047129e-06  1.952865e-12  4.433500e-13  1.509515e-12
1.071519e-06  2.088534e-12  4.749760e-13  1.613558e-12
1.096478e-06  2.233486e-12  5.088539e-13  1.724632e-12
1.122018e-06  2.388342e-12  5.451435e-13  1.843199e-12
1.148154e-06  2.553766e-12  5.840159e-13  1.969751e-12
1.174898e-06  2.730463e-12  6.256543e-13  2.104809e-12
1.202264e-06  2.919183e-12  6.702548e-13  2.248929e-12
1.230269e-06  3.120727e-12  7.180274e-13  2.402699e-12
1.258925e-06  3.335944e-12  7.691968e-13  2.566747e-12
1.288250e-06  3.565741e-12  8.240034e-13  2.741738e-12
1.318257e-06  3.811082e-12  8.827048e-13  2.928377e-12
1.348963e-06  4.072991e-12  9.455763e-13  3.127415e-12
1.380384e-06  4.352560e-12  1.012913e-12  3.339647e-12
1.412538e-06  4.650947e-12  1.085030e-12  3.565917e-12
1.445440e-06  4.969388e-12  1.162265e-12  3.807123e-12
1.479108e-06  5.309192e-12  1.244980e-12  4.064212e-12
1.513561e-06  5.671754e-12  1.333561e-12  4.338193e-12
1.548817e-06  6.058554e-12  1.428421e-12  4.630133e-12
1.584893e-06  6.471166e-12  1.530003e-12  4.941164e-12
1.621810e-06  6.911262e-12  1.638779e-12  5.272483e-12
1.659587e-06  7.380617e-12  1.755257e-12  5.625360e-12
1.698244e-06  7.881115e-12  1.879976e-12  6.001138e-12
1.737801e-06  8.414756e-12  2.013517e-12  6.401239e-12
1.778279e-06  8.983665e-12  2.156498e-12  6.827168e-12
1.819701e-06  9.590093e-12  2.309580e-12  7.280514e-12
1.862087e-06  1.023643e-11  2.473470e-12  7.762959e-12
1.905461e-06  1.092521e-11  2.648927e-12  8.276281e-12
1.949845e-06  1.165911e-11  2.836756e-12  8.822355e-12
1.995262e-06  1.244099e-11  3.037823e-12  9.403165e-12
2.041738e-06  1.327385e-11  3.253049e-12  1.002080e-11
2.089296e-06  1.416089e-11  3.483422e-12  1.067747e-11
2.137962e-06  1.510550e-11  3.729995e-12  1.137550e-11
2.187762e-06  1.611123e-11  3.993893e-12  1.211734e-11
2.238721e-06  1.718189e-11  4.276317e-12  1.290558e-11
2.290868e-06  1.832148e-11  4.578552e-12  1.374292e-11
2.344229e-06  1.953421e-11  4.901966e-12  1.463225e-11
2.398833e-06  2.082457e-11  5.248023e-12  1.557655e-11
2.454709e-06  2.219728e-11  5.618283e-12  1.657900e-11
2.511886e-06  2.365733e-11  6.014411e-12  1.764292e-11
2.570396e-06  2.520997e-11  6.438183e-12  1.877179e-11
2.630268e-06  2.686077e-11  6.891495e-12  1.996927e-11
2.691535e-06  2.861556e-11  7.376368e-12  2.123920e-11
2.754229e-06  3.048053e-11  7.894954e-12  2.258558e-11
2.818383e-06  3.246217e-11  8.449550e-12  2.401262e-11
2.884032e-06  3.456733e-11  9.042602e-12  2.552473e-11
2.951209e-06  3.680320e-11  9.676716e-12  2.712648e-11
3.019952e-06  3.917735e-11  1.035467e-11  2.882268e-11
3.090295e-06  4.169773e-11  1.107941e-11  3.061832e-11
3.162278e-06  4.437272e-11  1.185409e-11  3.251863e-11
3.235937e-06  4.721107e-11  1.268206e-11  3.452902e-11
3.311311e-06  5.022200e-11  1.356686e-11  3.665514e-11
3.388442e-06  5.341513e-11  1.451229e-11  3.890284e-11
3.467369e-06  5.680059e-11  1.552236e-11  4.127823e-11
3.548134e-06  6.038894e-11  1.660135e-11  4.378759e-11
3.630781e-06  6.419124e-11  1.775380e-11  4.643745e-11
3.715352e-06  6.821906e-11  1.898451e-11  4.923455e-11
3.801894e-06  7.248445e-11  2.029860e-11  5.218585e-11
3.890451e-06  7.700000e-11  2.170148e-11  5.529852e-11
3.981072e-06  8.177883e-11  2.319889e-11  5.857994e-11
4.073803e-06  8.683459e-11  2.479691e-11  6.203768e-11
4.168694e-06  9.218149e-11  2.650199e-11  6.567950e-11
4.265795e-06  9.783428e-11  2.832093e-11  6.951335e-11
4.365158e-06  1.038083e-10  3.026093e-11  7.354733e-11
4.466836e-06  1.101193e-10  3.232961e-11  7.778969e-11
4.570882e-06  1.167838e-10  3.453498e-11  8.224883e-11
4.677351e-06  1.238188e-10  3.688554e-11  8.693324e-11
4.786301e-06  1.312417e-10  3.939021e-11  9.185150e-11
4.897788e-06  1.390707e-10  4.205841e-11  9.701225e-11
5.011872e-06  1.473242e-10  4.490003e-11  1.024241e-10
5.128614e-06  1.560213e-10  4.792549e-11  1.080958e-10
5.248075e-06  1.651817e-10  5.114572e-11  1.140360e-10
5.370318e-06  1.748253e-10  5.457219e-11  1.202531e-10
5.495409e-06  1.849724e-10  5.821692e-11  1.267555e-10
5.623413e-06  1.956440e-10  6.209249e-11  1.335515e-10
5.754399e-06  2.068610e-10  6.621206e-11  1.406490e-10
5.888437e-06  2.186450e-10  7.058934e-11  1.480557e-10
6.025596e-06  2.310175e-10  7.523864e-11  1.557789e-10
6.165950e-06  2.440003e-10  8.017485e-11  1.638255e-10
6.309573e-06  2.576152e-10  8.541345e-11  1.722018e-10
6.456542e-06  2.718841e-10  9.097046e-11  1.809136e-10
6.606934e-06  2.868286e-10  9.686248e-11  1.899661e-10
6.760830e-06  3.024703e-10  1.031067e-10  1.993636e-10
6.918310e-06  3.188302e-10  1.097207e-10  2.091095e-10
7.079458e-06  3.359292e-10  1.167227e-10  2.192065e-10
7.244360e-06  3.537873e-10  1.241313e-10  2.296560e-10
7.413102e-06  3.724239e-10  1.319656e-10  2.404583e-10
7.585776e-06  3.918574e-10  1.402448e-10  2.516125e-10
7.762471e-06  4.121052e-10  1.489888e-10  2.631163e-10
7.943282e-06  4.331834e-10  1.582175e-10  2.749659e-10
8.128305e-06  4.551065e-10  1.679508e-10  2.871557e-10
8.317638e-06  4.778877e-10  1.782089e-10  2.996787e-10
8.511380e-06  5.015377e-10  1.890119e-10  3.125259e-10
8.709636e-06  5.260657e-10  2.003795e-10  3.256861e-10
8.912509e-06  5.514780e-10  2.123314e-10  3.391466e-10
9.120108e-06  5.777785e-10  2.248866e-10  3.528919e-10
9.332543e-06  6.049681e-10  2.380635e-10  3.669046e-10
9.549926e-06  6.330446e-10  2.518796e-10  3.811650e-10
9.772372e-06  6.620022e-10  2.663517e-10  3.956505e-10
1.000000e-05  6.918314e-10  2.814949e-10  4.103366e-10
1.023293e-05  7.225187e-10  2.973231e-10  4.251957e-10
1.047129e-05  7.540462e-10  3.138484e-10  4.401978e-10
1.071519e-05  7.863913e-10  3.310810e-10  4.553103e-10
1.096478e-05  8.195266e-10  3.490287e-10  4.704978e-10
1.122018e-05  8.534193e-10  3.676968e-10  4.857225e-10
1.148154e-05  8.880314e-10  3.870875e-10  5.009439e-10
1.174898e-05  9.233189e-10  4.072001e-10  5.161188e-10
1.202264e-05  9.592322e-10  4.280303e-10  5.312019e-10
1.230269e-05  9.957151e-10  4.495697e-10  5.461454e-10
1.258925e-05  1.032705e-09  4.718059e-10  5.608994e-10
1.288250e-05  1.070134e-09  4.947219e-10  5.754122e-10
1.318257e-05  1.107926e-09  5.182959e-10  5.896301e-10
1.348963e-05  1.145999e-09  5.425007e-10  6.034982e-10
1.380384e-05  1.184264e-09  5.673039e-10  6.169603e-10
1.412538e-05  1.222627e-09  5.926672e-10  6.299594e-10
1.445440e-05  1.260984e-09  6.185461e-10  6.424379e-10
1.479108e-05  1.299228e-09  6.448901e-10  6.543382e-10
1.513561e-05  1.337245e-09  6.716422e-10  6.656030e-10
1.548817e-05  1.374915e-09  6.987389e-10  6.761756e-10
1.584893e-05  1.412111e-09  7.261102e-10  6.860008e-10
1.621810e-05  1.448704e-09  7.536793e-10  6.950246e-10
1.659587e-05  1.484559e-09  7.813629e-10  7.031957e-10
1.698244e-05  1.519537e-09  8.090717e-10  7.104650e-10
1.737801e-05  1.553497e-09  8.367098e-10  7.167867e-10
1.778279e-05  1.586295e-09  8.641759e-10  7.221187e-10
1.819701e-05  1.617786e-09  8.913630e-10  7.264228e-10
1.862087e-05  1.647825e-09  9.181596e-10  7.296656e-10
1.905461e-05  1.676268e-09  9.444496e-10  7.318184e-10
1.949845e-05  1.702972e-09  9.701136e-10  7.328580e-10
1.995262e-05  1.727796e-09  9.950296e-10  7.327667e-10
2.041738e-05  1.750607e-09  1.019074e-09  7.315329e-10
2.089296e-05  1.771272e-09  1.042121e-09  7.291512e-10
2.137962e-05  1.789670e-09  1.064047e-09  7.256225e-10
2.187762e-05  1.805683e-09  1.084729e-09  7.209542e-10
2.238721e-05  1.819206e-09  1.104046e-09  7.151602e-10
2.290868e-05  1.830142e-09  1.121882e-09  7.082608e-10
2.344229e-05  1.838407e-09  1.138124e-09  7.002827e-10
2.398833e-05  1.843927e-09  1.152668e-09  6.912590e-10
2.454709e-05  1.846644e-09  1.165415e-09  6.812284e-10
2.511886e-05  1.846512e-09  1.176277e-09  6.702353e-10
2.570396e-05  1.843502e-09  1.185173e-09  6.583294e-10
2.630268e-05  1.837600e-09  1.192035e-09  6.455651e-10
2.691535e-05  1.828807e-09  1.196806e-09  6.320011e-10
2.754229e-05  1.817142e-09  1.199442e-09  6.176997e-10
2.818383e-05  1.802638e-09  1.199912e-09  6.027266e-10
2.884032e-05  1.785348e-09  1.198198e-09  5.871498e-10
2.951209e-05  1.765336e-09  1.194297e-09  5.710394e-10
3.019952e-05  1.742687e-09  1.188220e-09  5.544667e-10
3.090295e-05  1.717497e-09  1.179993e-09  5.375036e-10
3.162278e-05  1.689877e-09  1.169655e-09  5.202221e-10
3.235937e-05  1.659953e-09  1.157259e-09  5.026935e-10
3.311311e-05  1.627861e-09  1.142872e-09  4.849883e-10
3.388442e-05  1.593748e-09  1.126573e-09  4.671748e-10
3.467369e-05  1.557772e-09  1.108452e-09  4.493196e-10
3.548134e-05  1.520097e-09  1.088611e-09  4.314863e-10
3.630781e-05  1.480896e-09  1.067160e-09  4.137357e-10
3.715352e-05  1.440343e-09  1.044218e-09  3.961251e-10
3.801894e-05  1.398620e-09  1.019912e-09  3.787081e-10
3.890451e-05  1.355906e-09  9.943717e-10  3.615344e-10
3.981072e-05  1.312384e-09  9.677342e-10  3.446497e-10
4.073803e-05  1.268233e-09  9.401378e-10  3.280954e-10
4.168694e-05  1.223631e-09  9.117224e-10  3.119087e-10
4.265795e-05  1.178751e-09  8.826282e-10  2.961224e-10
4.365158e-05  1.133759e-09  8.529940e-10  2.807652e-10
4.466836e-05  1.088818e-09  8.229563e-10  2.658614e-10
4.570882e-05  1.044079e-09  7.926480e-10  2.514313e-10
4.677351e-05  9.996889e-10  7.621975e-10  2.374915e-10
4.786301e-05  9.557819e-10  7.317275e-10  2.240544e-10
4.897788e-05  9.124840e-10  7.013548e-10  2.111292e-10
5.011872e-05  8.699104e-10  6.711888e-10  1.987216e-10
5.128614e-05  8.281660e-10  6.413317e-10  1.868343e-10
5.248075e-05  7.873448e-10  6.118778e-10  1.754670e-10
5.370318e-05  7.475300e-10  5.829132e-10  1.646168e-10
5.495409e-05  7.087940e-10  5.545154e-10  1.542786e-10
5.623413e-05  6.711986e-10  5.267537e-10  1.444449e-10
5.754399e-05  6.347954e-10  4.996889e-10  1.351066e-10
5.888437e-05  5.996261e-10  4.733734e-10  1.262527e-10
6.025596e-05  5.657229e-10  4.478518e-10  1.178711e-10
6.165950e-05  5.331089e-10  4.231606e-10  1.099483e-10
6.309573e-05  5.017989e-10  3.993291e-10  1.024698e-10
6.456542e-05  4.717996e-10  3.763792e-10  9.542045e-11
6.606934e-05  4.431109e-10  3.543264e-10  8.878446e-11
6.760830e-05  4.157256e-10  3.331801e-10  8.254556e-11
6.918310e-05  3.896309e-10  3.129437e-10  7.668721e-11
7.079458e-05  3.648082e-10  2.936155e-10  7.119272e-11
7.244360e-05  3.412347e-10  2.751893e-10  6.604538e-11
7.413102e-05  3.188830e-10  2.576544e-10  6.122857e-11
7.585776e-05  2.977223e-10  2.409965e-10  5.672583e-11
7.762471e-05  2.777189e-10  2.251979e-10  5.252096e-11
7.943282e-05  2.588365e-10  2.102384e-10  4.859811e-11
8.128305e-05  2.410368e-10  1.960950e-10  4.494182e-11
8.317638e-05  2.242801e-10  1.827431e-10  4.153705e-11
8.511380e-05  2.085254e-10  1.701561e-10  3.836927e-11
8.709636e-05  1.937310e-10  1.583066e-10  3.542445e-11
8.912509e-05  1.798550e-10  1.471659e-10  3.268909e-11
9.120108e-05  1.668552e-10  1.367049e-10  3.015026e-11
9.332543e-05  1.546897e-10  1.268941e-10  2.779559e-11
9.549926e-05  1.433170e-10  1.177037e-10  2.561327e-11
9.772372e-05  1.326963e-10  1.091042e-10  2.359208e-11
1.000000e-04  1.227876e-10  1.010663e-10  2.172133e-11
1.023293e-04  1.135519e-10  9.356096e-11  1.999094e-11
1.047129e-04  1.049513e-10  8.655995e-11  1.839132e-11
1.071519e-04  9.694906e-11  8.003560e-11  1.691346e-11
1.096478e-04  8.950985e-11  7.396100e-11  1.554885e-11
1.122018e-04  8.259961e-11  6.831013e-11  1.428948e-11
1.148154e-04  7.618568e-11  6.305786e-11  1.312782e-11
1.174898e-04  7.023685e-11  5.818002e-11  1.205683e-11
1.202264e-04  6.472332e-11  5.365344e-11  1.106988e-11
1.230269e-04  5.961674e-11  4.945594e-11  1.016080e-11
1.258925e-04  5.489017e-11  4.556638e-11  9.323791e-12
1.288250e-04  5.051811e-11  4.196464e-11  8.553471e-12
1.318257e-04  4.647640e-11  3.863160e-11  7.844801e-12
1.348963e-04  4.274226e-11  3.554916e-11  7.193095e-12
1.380384e-04  3.929419e-11  3.270020e-11  6.593991e-12
1.412538e-04  3.611199e-11  3.006855e-11  6.043436e-12
1.445440e-04  3.317665e-11  2.763899e-11  5.537663e-12
1.479108e-04  3.047035e-11  2.539717e-11  5.073177e-12
1.513561e-04  2.797640e-11  2.332966e-11  4.646739e-12
1.548817e-04  2.567916e-11  2.142381e-11  4.255346e-12
1.584893e-04  2.356403e-11  1.966782e-11  3.896218e-12
1.621810e-04  2.161739e-11  1.805061e-11  3.566784e-12
1.659587e-04  1.982652e-11  1.656186e-11  3.264665e-12
1.698244e-04  1.817959e-11  1.519192e-11  2.987664e-12
1.737801e-04  1.666556e-11  1.393181e-11  2.733754e-12
1.778279e-04  1.527421e-11  1.277315e-11  2.501060e-12
1.819701e-04  1.399602e-11  1.170816e-11  2.287856e-12
1.862087e-04  1.282216e-11  1.072961e-11  2.092549e-12
1.905461e-04  1.174444e-11  9.830764e-12  1.913673e-12
1.949845e-04  1.075527e-11  9.005400e-12  1.749875e-12
1.995262e-04  9.847648e-12  8.247737e-12  1.599911e-12
2.041738e-04  9.015058e-12  7.552421e-12  1.462637e-12
2.089296e-04  8.251497e-12  6.914498e-12  1.337000e-12
2.137962e-04  7.551414e-12  6.329384e-12  1.222030e-12
2.187762e-04  6.909682e-12  5.792844e-12  1.116838e-12
2.238721e-04  6.321569e-12  5.300962e-12  1.020607e-12
2.290868e-04  5.782711e-12  4.850127e-12  9.325838e-13
2.344229e-04  5.289084e-12  4.437003e-12  8.520804e-13
2.398833e-04  4.836980e-12  4.058517e-12  7.784631e-13
2.454709e-04  4.422984e-12  3.711833e-12  7.111509e-13
2.511886e-04  4.043952e-12  3.394341e-12  6.496109e-13
2.570396e-04  3.696991e-12  3.103636e-12  5.933542e-13
2.630268e-04  3.379438e-12  2.837506e-12  5.419326e-13
2.691535e-04  3.088848e-12  2.593913e-12  4.949354e-13
2.754229e-04  2.822971e-12  2.370985e-12  4.519858e-13
2.818383e-04  2.579739e-12  2.167001e-12  4.127388e-13
2.884032e-04  2.357256e-12  1.980377e-12  3.768784e-13
2.951209e-04  2.153776e-12  1.809661e-12  3.441152e-13
3.019952e-04  1.967702e-12  1.653518e-12  3.141839e-13
3.090295e-04  1.797563e-12  1.510721e-12  2.868418e-13
3.162278e-04  1.642013e-12  1.380147e-12  2.618669e-13
3.235937e-04  1.499818e-12  1.260762e-12  2.390557e-13
3.311311e-04  1.369843e-12  1.151621e-12  2.182222e-13
3.388442e-04  1.251051e-12  1.051854e-12  1.991961e-13
3.467369e-04  1.142489e-12  9.606673e-13  1.818217e-13
3.548134e-04  1.043286e-12  8.773297e-13  1.659565e-13
3.630781e-04  9.526432e-13  8.011730e-13  1.514702e-13
3.715352e-04  8.698284e-13  7.315847e-13  1.382436e-13
3.801894e-04  7.941717e-13  6.680038e-13  1.261679e-13
3.890451e-04  7.250596e-13  6.099162e-13  1.151434e-13
